Data from USB2G573461__13__15-05-16-564.txt Node

Date: Tue Feb 15 15:05:16 EST 2022
User: sammynoelparise
Spectrometer: USB2G57346
Scans to average: 1
Trigger mode: 4
Integration Time (sec): 1,000000E-1
Electric dark correction enabled: true
Boxcar width: 0
XAxis mode: Wavelengths
Number of Pixels in Spectrum: 651
>>>>>Begin Spectral Data<<<<<
350	-1,33
351	1,49
352	2,38
353	-1,11
354	-1,43
355	0,85
356	0,28
357	0,68
358	0,45
359	0,52
360	-1,32
361	-2,27
362	-0,8
363	0,68
364	-2,72
365	-0,91
366	-3,35
367	-2,66
368	2,5
369	3,65
370	1,07
371	3,21
372	2,66
373	0,69
374	1,07
375	1,66
376	-0,77
377	-0,28
378	2,69
379	1,77
380	-7,91
381	-1,32
382	-1,23
383	2,72
384	0,97
385	-0,16
386	-0,87
387	1,55
388	1,34
389	4,29
390	-0,03
391	0,83
392	0,83
393	2,5
394	1,47
395	3,04
396	6,8
397	-0,33
398	2,92
399	1,21
400	0,7
401	0,04
402	3,54
403	-1,15
404	3,1
405	1,23
406	2,97
407	0,83
408	4,21
409	4,66
410	1,61
411	2,52
412	-2,79
413	3,37
414	1,74
415	1,91
416	1,39
417	1,62
418	4,05
419	2,81
420	2,76
421	4,26
422	4,53
423	2,25
424	3,61
425	4,31
426	4,45
427	1,73
428	2,95
429	2,43
430	3,75
431	2,65
432	4,39
433	3,85
434	3,52
435	0,58
436	3,02
437	-0,25
438	0,68
439	5,39
440	2
441	2,85
442	5,74
443	4,18
444	3,51
445	4,85
446	3,56
447	6,48
448	4,63
449	4,66
450	6,31
451	5,46
452	3,33
453	6,65
454	5,72
455	2,01
456	2,87
457	1,58
458	1,63
459	5,14
460	-0,29
461	2,6
462	-1,15
463	4,28
464	1,94
465	2,76
466	1,6
467	5,17
468	2,01
469	2,24
470	0,38
471	4,91
472	-0,26
473	6,32
474	2,5
475	2,11
476	4,71
477	3,89
478	3,16
479	4,04
480	2,24
481	1,65
482	4,24
483	2,43
484	1,27
485	-0,36
486	4,11
487	2,45
488	4,28
489	1,58
490	2,98
491	2,41
492	1,27
493	-0,41
494	-1,43
495	3,88
496	4,53
497	2,91
498	3,52
499	3,31
500	-0,62
501	5,21
502	2,15
503	2,67
504	5,23
505	5,11
506	3,55
507	-0,53
508	2,23
509	-0,41
510	3
511	2,37
512	2,61
513	-0,79
514	2,97
515	2,36
516	2,97
517	0,68
518	2,53
519	2,71
520	2
521	1,98
522	1,68
523	0,99
524	3,84
525	4,72
526	0,06
527	2,65
528	2,56
529	-1,03
530	0,28
531	2,75
532	1,71
533	8,41
534	3,33
535	1,96
536	5,61
537	5,35
538	1,52
539	-0,7
540	4,05
541	4,72
542	3,4
543	5,13
544	1,39
545	0,51
546	6,06
547	1,42
548	1,91
549	0,75
550	-0,5
551	1,55
552	0,26
553	3,82
554	5,43
555	2,61
556	5,36
557	1,3
558	4,25
559	5,84
560	1,96
561	2,57
562	-0,29
563	4,41
564	1,48
565	4,89
566	3,85
567	4,68
568	5,74
569	5,61
570	5,4
571	7,23
572	4,64
573	7,19
574	8,35
575	9,76
576	7,64
577	10,38
578	11,11
579	11,91
580	11,73
581	19,52
582	20,72
583	21,57
584	21,07
585	26,83
586	21,03
587	27,28
588	30,05
589	37,66
590	41,15
591	35,74
592	43,74
593	50,82
594	52,01
595	57,97
596	60,19
597	65,93
598	69,55
599	71,14
600	86,05
601	86,56
602	95,73
603	94,23
604	104,02
605	109,55
606	120,81
607	121,47
608	120,09
609	128,65
610	143,58
611	146,39
612	148,04
613	157,52
614	165,74
615	171,27
616	175,66
617	176,28
618	187,78
619	187,78
620	191,68
621	207,68
622	203,4
623	211,97
624	206,18
625	218,07
626	215,49
627	221,64
628	226,98
629	225,08
630	225,79
631	231,59
632	230,62
633	237,86
634	235,86
635	224,53
636	226,58
637	236,17
638	226,81
639	225,5
640	226,61
641	227,58
642	223,96
643	226,38
644	211,5
645	217,33
646	219,1
647	213,46
648	200,07
649	204,07
650	201,34
651	199,37
652	200,53
653	189,13
654	191,64
655	180,7
656	187,66
657	174,27
658	167,71
659	166,93
660	162,04
661	161,03
662	156,47
663	148,3
664	148,34
665	135,11
666	139,3
667	129,95
668	122,85
669	121,34
670	120,42
671	117,05
672	119,82
673	116,5
674	108,79
675	106,37
676	103,35
677	104,32
678	100,56
679	99,31
680	96
681	94,23
682	93,5
683	84,97
684	87,51
685	89,49
686	80,68
687	78,32
688	79,17
689	66,04
690	67,69
691	70,41
692	69,15
693	65,93
694	67,2
695	61,65
696	58,75
697	58,45
698	55,73
699	54,19
700	53,57
701	48,59
702	48,77
703	47,82
704	47,42
705	46,23
706	45,84
707	43,96
708	37,04
709	38,32
710	35,16
711	33,26
712	34,34
713	35,16
714	31,63
715	28,55
716	24,86
717	25,14
718	28,11
719	25,44
720	21,23
721	23,99
722	24,21
723	23,28
724	20,53
725	20,66
726	17,57
727	19,57
728	17,06
729	16,57
730	19,61
731	15,33
732	18,39
733	14,9
734	15,16
735	12,87
736	10,35
737	14,48
738	13,43
739	15,21
740	6,42
741	8,51
742	9,68
743	10,22
744	8,89
745	8,92
746	8,88
747	13,41
748	4,28
749	9,36
750	9,74
751	9,76
752	6,66
753	8,22
754	10,64
755	5,66
756	9,5
757	8,53
758	7,37
759	6,92
760	5,88
761	4,62
762	4,09
763	6,11
764	4,74
765	5,68
766	3,96
767	4,71
768	1,58
769	6,08
770	2,61
771	5,5
772	0,52
773	5,77
774	7,24
775	2,26
776	0,97
777	1,93
778	4,11
779	4,03
780	6,55
781	3,66
782	0,8
783	4,32
784	-0,73
785	4,39
786	2,07
787	2,59
788	3,6
789	0,81
790	1,26
791	0,79
792	3,89
793	1,23
794	3,8
795	3,51
796	6,14
797	4,36
798	-0,54
799	2,93
800	-0,07
801	4,66
802	1,42
803	-2,13
804	-0,73
805	-0,85
806	1,88
807	1,77
808	3,6
809	3,04
810	3,01
811	0,86
812	2,56
813	2,77
814	-3,31
815	1,67
816	2,82
817	-1,28
818	-0,1
819	0,9
820	2,22
821	5,98
822	2,87
823	5,1
824	0,28
825	-0,34
826	0,38
827	3,56
828	0,63
829	-1,6
830	1,23
831	3,49
832	1,49
833	1,58
834	-0,71
835	2,97
836	-1,29
837	-1,23
838	1,38
839	1
840	-2,5
841	-1,05
842	4,23
843	2,41
844	5,3
845	0,82
846	0,44
847	-1
848	-1,63
849	1,31
850	1,1
851	0,27
852	1,5
853	3,24
854	2,73
855	3,19
856	0,68
857	2,3
858	1,03
859	-0,4
860	4,88
861	3,99
862	-0,44
863	-1,34
864	0,04
865	-0,27
866	2,06
867	-0,31
868	2,25
869	0,29
870	1,72
871	-0,57
872	2,05
873	-0,69
874	-2,06
875	0,11
876	-2,91
877	-2,95
878	1,01
879	2,94
880	-0,26
881	-1,35
882	-0,49
883	-1,3
884	-0,26
885	1,94
886	-3,34
887	-1,68
888	-0,75
889	0,66
890	1,49
891	-1,16
892	0,67
893	2
894	2,61
895	-0,61
896	-1,65
897	-2,11
898	1,66
899	-0,17
900	-2,06
901	-0,31
902	2,41
903	0,83
904	-0,1
905	-1,11
906	1,6
907	1,13
908	0,19
909	0,58
910	1,25
911	-2,25
912	-0,47
913	1,16
914	1,32
915	-1,05
916	-3,33
917	-0,17
918	-0,99
919	2,44
920	-0,74
921	0,44
922	-0,5
923	-0,31
924	3,16
925	-1,96
926	1,68
927	3,96
928	-1,38
929	-0,41
930	-2,42
931	0,62
932	1,08
933	-0,35
934	-0,03
935	-1,23
936	2,15
937	-1,88
938	-0,52
939	-0,29
940	3,82
941	-0,31
942	7,66
943	-1,92
944	-0,31
945	-1,22
946	-0,22
947	2,98
948	-0,04
949	-0,12
950	1,91
951	3,47
952	3,68
953	-1,85
954	-2,06
955	-2,49
956	-3,18
957	0,79
958	1,88
959	-1,38
960	1,62
961	2,43
962	0,7
963	0,73
964	-1,48
965	0,55
966	-4,28
967	0,45
968	-3,78
969	1,61
970	-1,31
971	-3,04
972	-2,3
973	0,36
974	2,52
975	2,76
976	-0,74
977	-1,56
978	0,33
979	-1,64
980	3,44
981	-1,33
982	2,04
983	3,5
984	-1,98
985	-1,44
986	-3,39
987	0,95
988	0,66
989	1,85
990	3,14
991	4,22
992	2,82
993	0,8
994	-1,75
995	-0,25
996	-1,83
997	3,33
998	-3,26
999	2,99
1000	2,41
