Data from USB2G573461__14__15-05-25-775.txt Node

Date: Tue Feb 15 15:05:25 EST 2022
User: sammynoelparise
Spectrometer: USB2G57346
Scans to average: 1
Trigger mode: 4
Integration Time (sec): 1,000000E-1
Electric dark correction enabled: true
Boxcar width: 0
XAxis mode: Wavelengths
Number of Pixels in Spectrum: 651
>>>>>Begin Spectral Data<<<<<
350	-0,05
351	-0,21
352	0,46
353	-3,41
354	3,2
355	5,41
356	0,45
357	1,09
358	-3,69
359	3,76
360	1,13
361	0,39
362	-0,11
363	4,13
364	-1,81
365	-0,34
366	3,11
367	0,12
368	-3,53
369	1,11
370	-2,69
371	2,26
372	-0,89
373	-0,21
374	0,06
375	-1,89
376	-1,48
377	0,64
378	0,13
379	2,23
380	1,96
381	3,16
382	1,74
383	3,38
384	3,95
385	0,74
386	1,96
387	-0,9
388	1,32
389	2,35
390	4,48
391	3,24
392	-0,09
393	3,71
394	0,9
395	3,23
396	-1,96
397	-0,87
398	0,03
399	-1,54
400	1,22
401	0,66
402	5,13
403	1,45
404	-2,04
405	3,67
406	2
407	0,34
408	2,49
409	-0,83
410	4,87
411	1,32
412	-0,59
413	3,15
414	4,21
415	3,85
416	3,11
417	4,04
418	2,77
419	2,11
420	3,31
421	3
422	-0,19
423	1,12
424	2,2
425	1,44
426	-0,79
427	6,28
428	6,87
429	2,9
430	2,73
431	3,21
432	2,15
433	1,43
434	3,2
435	3,01
436	-1,8
437	1,33
438	4,12
439	2,57
440	3,13
441	3,31
442	1,91
443	0,61
444	3,31
445	0,53
446	2,02
447	1,45
448	-1,12
449	5,13
450	0,99
451	2,51
452	1,36
453	0,06
454	3,02
455	1,81
456	2,84
457	1,01
458	2,4
459	2,73
460	0,48
461	0,36
462	1,97
463	0,81
464	2,89
465	3,01
466	3,05
467	3,63
468	3,14
469	4,05
470	4,55
471	3,98
472	-0,22
473	-0,42
474	0,6
475	2,32
476	0,84
477	1,91
478	-0,28
479	-0,04
480	-1,56
481	2,32
482	-2,15
483	1,57
484	4,26
485	4,1
486	0,19
487	0,54
488	3,38
489	-0,56
490	4,92
491	1,39
492	1,89
493	1,02
494	1,89
495	-1,33
496	-0,75
497	1,87
498	4,41
499	2,88
500	0,12
501	-0,95
502	-0,73
503	2,04
504	1,86
505	4,62
506	2,2
507	1,16
508	4,74
509	0,77
510	3,32
511	0,12
512	3,11
513	2,44
514	-2,37
515	1,04
516	4,02
517	3,1
518	0,06
519	1,96
520	2,95
521	2,02
522	0,12
523	1,02
524	2,27
525	4,09
526	3,63
527	0,06
528	3,47
529	1,97
530	0,45
531	0,01
532	2,29
533	-1,57
534	0,67
535	-0,16
536	4,93
537	-1,41
538	3,15
539	-2,72
540	1,33
541	0,83
542	4,07
543	0,13
544	-0,1
545	-1,25
546	4,19
547	1,11
548	0,87
549	5,12
550	1,45
551	4,21
552	1,43
553	2,11
554	2
555	-0,89
556	2,27
557	1,55
558	6,17
559	0,23
560	4,65
561	5,04
562	2,95
563	5,16
564	4,47
565	1,7
566	-0,31
567	3,09
568	5,17
569	2,44
570	1,9
571	6,64
572	6,53
573	7,66
574	8,22
575	10,95
576	8,42
577	7,45
578	10,31
579	10,6
580	13,77
581	14,03
582	12,28
583	18,58
584	20,98
585	20,74
586	25,31
587	28,14
588	27,94
589	34,18
590	33,13
591	38,37
592	40,38
593	43,49
594	47,57
595	56,08
596	52,61
597	67,25
598	67,01
599	68,54
600	80,17
601	83,47
602	90,33
603	96,06
604	95,39
605	98,55
606	107,98
607	110,19
608	123,21
609	130,01
610	133,64
611	140,35
612	146,24
613	155,1
614	154,06
615	163,21
616	170,13
617	175,44
618	181,35
619	181,93
620	193,72
621	198,2
622	203,61
623	198,53
624	204,81
625	216,54
626	213,47
627	218,15
628	215,18
629	223,11
630	216,55
631	224,06
632	222,19
633	228,65
634	224,92
635	230,72
636	232,48
637	231,96
638	221,27
639	223,48
640	235,99
641	221,26
642	224,95
643	218,33
644	219,35
645	211,18
646	208,84
647	206,47
648	207,04
649	201,88
650	194,75
651	192,77
652	195,64
653	191,33
654	185,03
655	177,1
656	171,67
657	178,27
658	166,08
659	169,2
660	155,27
661	154,88
662	149,73
663	145,56
664	149,52
665	135,26
666	135,56
667	126,82
668	128,87
669	121,1
670	123,2
671	114,87
672	112,62
673	115,46
674	107,15
675	102,07
676	99,4
677	97,91
678	102,9
679	102,27
680	91,88
681	91,74
682	85,73
683	87,61
684	86,74
685	83,73
686	78,59
687	76,64
688	75,57
689	70,96
690	70,28
691	72,63
692	62,67
693	64,29
694	59,75
695	66,63
696	58,84
697	57,38
698	58
699	51,72
700	58,48
701	50,34
702	47,84
703	50,33
704	40,52
705	45,86
706	38,92
707	44,92
708	36,49
709	36,13
710	35,84
711	30,91
712	35,99
713	31,55
714	28,01
715	28,4
716	27,98
717	25,33
718	25,82
719	27,03
720	26,3
721	22,27
722	24,51
723	22,61
724	21,36
725	17,15
726	18,04
727	18,04
728	14,83
729	20,38
730	17,63
731	15,74
732	17,89
733	12,24
734	16,53
735	13,09
736	11,7
737	11,01
738	11,59
739	11,36
740	13,34
741	9,25
742	9,11
743	12,14
744	12,85
745	9,92
746	10,67
747	9,6
748	9,72
749	4,28
750	8,73
751	8,32
752	7,09
753	7,48
754	6,2
755	4,01
756	6,18
757	8,69
758	7,6
759	8,91
760	4,74
761	5,03
762	5,81
763	4,97
764	4,19
765	2,31
766	4,19
767	4,81
768	6,43
769	3,98
770	4,7
771	0,89
772	4,57
773	-0,84
774	1,24
775	1,56
776	0,47
777	5,3
778	3,58
779	0,57
780	4,87
781	1,13
782	-0,68
783	0,68
784	5,2
785	-2,85
786	2,55
787	2,42
788	0,06
789	1,91
790	2,02
791	4,11
792	1,31
793	2,7
794	1,96
795	1,09
796	5,86
797	0,65
798	0,61
799	1,97
800	0,39
801	3,14
802	0,9
803	1,11
804	-2,85
805	-1,73
806	1,91
807	2,12
808	1,68
809	2,88
810	1,25
811	1,28
812	0,27
813	0
814	-1,33
815	0,69
816	1,35
817	0,15
818	2,03
819	-0,04
820	0,99
821	-0,59
822	-0,06
823	-0,02
824	-3,66
825	-0,09
826	0,22
827	3,13
828	-1,18
829	0,71
830	-0,96
831	-2,18
832	-0,63
833	1,85
834	-1,95
835	0,93
836	2,08
837	-0,54
838	0,61
839	-1,21
840	-1,17
841	1,84
842	2,53
843	1,27
844	2,37
845	-0,23
846	-2,36
847	0,82
848	-2,58
849	-3,5
850	2,33
851	-0,7
852	1,23
853	-0,43
854	0,42
855	-1,99
856	4,09
857	-0,71
858	3,24
859	3,64
860	0,14
861	-0,79
862	-1,96
863	-0,74
864	1,38
865	-0,33
866	2,13
867	-0,98
868	-1,11
869	-0,77
870	0,15
871	-1,96
872	-1,54
873	-0,08
874	0,44
875	0,7
876	-0,63
877	2,76
878	0,39
879	2,18
880	0,15
881	1,12
882	-3,24
883	-5,87
884	1,44
885	-0,24
886	1,12
887	1,7
888	-2,16
889	0,12
890	-1,84
891	0,57
892	0,09
893	-0,4
894	1,66
895	-2,09
896	0,68
897	3,05
898	1,22
899	1,26
900	0,29
901	-2,11
902	-1,42
903	0,12
904	0,93
905	-0,98
906	0,16
907	-1,34
908	1,69
909	-2,32
910	1,48
911	-1,81
912	3,1
913	-2,06
914	-1,87
915	0,64
916	-0,69
917	-1,11
918	-1,64
919	-1,1
920	-0,63
921	-0,08
922	-4,31
923	0,76
924	-0,99
925	-0,53
926	-1,79
927	-0,19
928	1,23
929	0,35
930	1,28
931	-0,99
932	-0,31
933	0,06
934	-0,93
935	1,85
936	-1,34
937	2,29
938	-1,53
939	-1,06
940	-2,15
941	0,53
942	0,88
943	2,05
944	0,11
945	0,53
946	-1,79
947	-0,12
948	3,21
949	-3,64
950	-3,8
951	-0,3
952	-0,07
953	-1,98
954	2,01
955	2,44
956	-0,83
957	2,17
958	-0,46
959	0,47
960	-3,3
961	0,62
962	2,49
963	-1,56
964	0,8
965	-1,38
966	-1,93
967	-0,45
968	-2,87
969	-1,68
970	-0,93
971	-0,86
972	0,14
973	-0,3
974	1
975	1,79
976	-3,26
977	2,54
978	1,29
979	-1,88
980	-1,83
981	-1,89
982	0,35
983	0,98
984	2,21
985	-0,11
986	-1,9
987	-3,72
988	1,11
989	1,57
990	3,45
991	3,4
992	1,27
993	-2,84
994	0,36
995	0,08
996	3,04
997	2,27
998	0,12
999	3,87
1000	-0,06
