Data from USB2G573461__44__15-11-56-684.txt Node

Date: Tue Feb 15 15:11:56 EST 2022
User: sammynoelparise
Spectrometer: USB2G57346
Scans to average: 1
Trigger mode: 4
Integration Time (sec): 1,000000E-1
Electric dark correction enabled: true
Boxcar width: 0
XAxis mode: Wavelengths
Number of Pixels in Spectrum: 651
>>>>>Begin Spectral Data<<<<<
350	-3,29
351	0,4
352	0,35
353	1,02
354	1,53
355	0,96
356	0,09
357	3,37
358	-0,26
359	-2,05
360	5,43
361	4,01
362	3,54
363	1,45
364	0,13
365	2,62
366	2,5
367	4,38
368	2,23
369	5,41
370	4,23
371	2,35
372	5,43
373	2,03
374	3,49
375	-0,53
376	4,34
377	2,49
378	3,34
379	1,48
380	5,57
381	3,24
382	2,73
383	-1,33
384	3,25
385	1,31
386	2,32
387	2,54
388	2,04
389	3,67
390	-1,76
391	5,21
392	3,05
393	3,36
394	0,41
395	0,41
396	4,95
397	1,43
398	3
399	5,26
400	5,66
401	2,95
402	4,57
403	5,39
404	2,01
405	0,29
406	6,07
407	4,44
408	4,59
409	4,36
410	5,49
411	6,23
412	5
413	4,45
414	2,48
415	2,78
416	4,84
417	0,35
418	4,74
419	0,99
420	6,78
421	3,05
422	7,16
423	2,82
424	4,5
425	1,64
426	2,67
427	7,36
428	1,85
429	4,14
430	1,61
431	1,75
432	3,93
433	5,2
434	1,61
435	2,98
436	2,02
437	2,29
438	3,43
439	2,29
440	6,69
441	7,29
442	4,26
443	2,27
444	4,02
445	1,57
446	6,21
447	3,11
448	4,48
449	3,44
450	6,39
451	6,7
452	3,41
453	6,46
454	4,77
455	3,34
456	4,09
457	4,41
458	3,71
459	3,63
460	5,29
461	1,01
462	3,55
463	1,39
464	3,72
465	7,71
466	4,89
467	1,99
468	3,39
469	0,92
470	4,31
471	0,92
472	4,37
473	4,32
474	-1,05
475	3,39
476	2,79
477	1,49
478	2,45
479	1,95
480	1,54
481	5,51
482	3,79
483	4,25
484	7,04
485	0,46
486	6,35
487	2,82
488	6,83
489	7,41
490	3,79
491	4,58
492	4,5
493	0,66
494	4,28
495	4,52
496	3,04
497	6,53
498	0,6
499	5,84
500	4,98
501	3
502	5,64
503	3,48
504	1,69
505	2,9
506	5,58
507	3,34
508	4,9
509	2,21
510	2,18
511	5,95
512	4,49
513	4,19
514	4,02
515	3,29
516	4,1
517	-2,58
518	3,32
519	1,28
520	2,51
521	1,47
522	5,44
523	3,22
524	7,33
525	6,07
526	4,74
527	0,52
528	5,15
529	3,35
530	3,34
531	0,67
532	3,41
533	2,6
534	3,2
535	-0,41
536	3,12
537	0,27
538	5,46
539	2,32
540	3,89
541	3,16
542	-0,33
543	3,83
544	4,22
545	4,07
546	3,05
547	3,02
548	1,57
549	0,44
550	5,14
551	3,69
552	2,4
553	-2,12
554	3,5
555	6,43
556	2,71
557	1,26
558	2,85
559	0,55
560	2,54
561	3,61
562	3,15
563	2,12
564	5,63
565	4,79
566	4,72
567	3,43
568	0,63
569	3,01
570	-2,62
571	2,3
572	3,96
573	3,81
574	3,4
575	5,52
576	4,23
577	2,5
578	2,45
579	0,7
580	3,53
581	2,55
582	3,68
583	4,9
584	2,37
585	4,39
586	0,56
587	4,87
588	3,21
589	3,29
590	4,4
591	3,92
592	3,22
593	3,32
594	2,18
595	3,93
596	3,51
597	4,42
598	5,43
599	8,95
600	6,88
601	9,62
602	7,43
603	9,44
604	10,23
605	13,7
606	10,44
607	13,28
608	11,77
609	18,07
610	24,13
611	20,74
612	15,49
613	27,54
614	33,71
615	35,09
616	34,44
617	39,57
618	43,52
619	44,94
620	53,79
621	56,12
622	54,99
623	62,34
624	62,93
625	73,36
626	72,67
627	84,44
628	81,65
629	95,83
630	101,56
631	99,09
632	102,78
633	109,41
634	116,45
635	107,14
636	121,81
637	120,66
638	123
639	133,55
640	133,29
641	129,49
642	132,06
643	136,37
644	139,66
645	141,68
646	136,01
647	142,41
648	141,72
649	143,95
650	140,19
651	139,44
652	138,66
653	136,59
654	132,73
655	130,67
656	126,72
657	130,02
658	120,49
659	109,61
660	115,79
661	110,82
662	107,87
663	100,79
664	100,88
665	99,19
666	90,55
667	90,72
668	86,62
669	92,03
670	86,61
671	86,21
672	80,13
673	79,26
674	77,49
675	83,91
676	83,66
677	84,16
678	81,99
679	85,47
680	80,65
681	94,03
682	90,55
683	92,74
684	103,86
685	89,84
686	91
687	95,94
688	88,35
689	83,59
690	84,75
691	83,33
692	83,54
693	82,18
694	79,29
695	76,43
696	73,82
697	72,92
698	71,45
699	65,98
700	64,64
701	61,67
702	59,38
703	54,52
704	59,26
705	59,01
706	55,21
707	53,54
708	53,89
709	47,65
710	44,45
711	46,13
712	42,43
713	41,46
714	52,6
715	43,43
716	35,29
717	36,79
718	35,81
719	32,39
720	33,15
721	31,7
722	36,16
723	32,27
724	24,36
725	36,42
726	29,34
727	28,03
728	28,51
729	25,38
730	24,2
731	22,94
732	24,45
733	20,06
734	20,48
735	23,08
736	21,45
737	20,31
738	19,77
739	16,04
740	13,46
741	15,48
742	13,45
743	16,63
744	13,83
745	14,15
746	17,34
747	14,48
748	10,92
749	12,52
750	14,43
751	12,6
752	9,35
753	12,43
754	13,48
755	9,68
756	8,79
757	14,82
758	9,44
759	7,96
760	7,64
761	11
762	8,5
763	9,32
764	11,38
765	10,5
766	8,45
767	5,39
768	9,08
769	6,77
770	15,69
771	6,57
772	8,16
773	4,44
774	7,14
775	10,29
776	6,61
777	6,41
778	5,08
779	3,1
780	3
781	5,44
782	5,62
783	4,34
784	2,66
785	6,79
786	2,63
787	4,44
788	4,34
789	5,62
790	3,21
791	4,17
792	4,42
793	3,75
794	4,21
795	0,38
796	2,45
797	2,91
798	4,33
799	1,22
800	2,29
801	4,46
802	0,81
803	0,52
804	0,88
805	6,37
806	3,56
807	1,57
808	1,54
809	2,93
810	3,01
811	2,92
812	2,28
813	3,97
814	2,35
815	0,19
816	-1,9
817	3,17
818	2,08
819	4,52
820	4,26
821	4,43
822	2,39
823	4,11
824	4,61
825	6,27
826	4,37
827	3,38
828	2,96
829	3,3
830	0,9
831	2,71
832	4,27
833	2,72
834	-0,62
835	3,88
836	4,38
837	5
838	1,45
839	1,39
840	4,45
841	3,54
842	3,3
843	3,15
844	2,96
845	1,83
846	0,17
847	2,19
848	2,58
849	2,3
850	2,35
851	1
852	3,73
853	0,78
854	3,65
855	0,52
856	-1,55
857	3,22
858	0,75
859	0,08
860	-0,06
861	5,45
862	-0
863	3,73
864	1,74
865	3,15
866	4,03
867	3,42
868	1,46
869	-0,03
870	0,41
871	1,82
872	2,89
873	1,18
874	2,07
875	3,39
876	2,73
877	-0,46
878	3,29
879	5,37
880	4,49
881	5,85
882	5,23
883	0,42
884	2,06
885	4,2
886	1,43
887	-1,26
888	0,61
889	3,44
890	2,5
891	1,56
892	2,38
893	4,02
894	0,92
895	-2,69
896	1,51
897	4,51
898	5,27
899	0,2
900	1,66
901	2,63
902	1,75
903	1,18
904	3,2
905	3,3
906	1,33
907	1,63
908	1,08
909	5,38
910	5,35
911	1,45
912	1,37
913	-0,05
914	-0,41
915	4,23
916	2,44
917	-0,21
918	1,83
919	-0,53
920	1,83
921	2,39
922	-0,06
923	-1,79
924	2,42
925	2,02
926	-0,56
927	7,89
928	-0,69
929	2,18
930	4,04
931	1,22
932	2,43
933	2,54
934	-1,78
935	4,54
936	3,28
937	2,63
938	3,39
939	-0,32
940	3,81
941	3,02
942	1,13
943	4,4
944	-0,56
945	0,35
946	4,29
947	2,12
948	1,1
949	0,84
950	5,96
951	0,43
952	5,52
953	-1,76
954	-2,26
955	2,68
956	0,08
957	2,92
958	7,2
959	0,91
960	5,39
961	3,37
962	2,7
963	1,3
964	4,4
965	2,41
966	3,12
967	3,62
968	3,74
969	2,59
970	6,41
971	0,95
972	-0,36
973	1,24
974	-1,4
975	1,24
976	6,43
977	1,41
978	0,84
979	2,49
980	2,65
981	2,43
982	2,65
983	4,09
984	2,07
985	2,84
986	1,14
987	-0,83
988	2,42
989	3,33
990	6,14
991	1,67
992	3,49
993	2,43
994	7,24
995	-0,19
996	0,76
997	2,42
998	0,46
999	2,22
1000	0,11
