Data from USB2G573461__39__15-11-09-586.txt Node

Date: Tue Feb 15 15:11:09 EST 2022
User: sammynoelparise
Spectrometer: USB2G57346
Scans to average: 1
Trigger mode: 4
Integration Time (sec): 1,000000E-1
Electric dark correction enabled: true
Boxcar width: 0
XAxis mode: Wavelengths
Number of Pixels in Spectrum: 651
>>>>>Begin Spectral Data<<<<<
350	1,72
351	-2,72
352	-1,66
353	3,38
354	-0,72
355	0,39
356	3,89
357	2,27
358	3,84
359	1,8
360	2,23
361	1,63
362	1
363	3,24
364	3,95
365	3,12
366	1,21
367	2,8
368	0,84
369	3,26
370	4,71
371	2,59
372	0,24
373	3,18
374	1,11
375	5,23
376	3,09
377	2,48
378	2,23
379	5,19
380	1,85
381	5,12
382	1,69
383	1,65
384	1,24
385	5,15
386	1,55
387	2,8
388	3,79
389	3,87
390	2,21
391	2,56
392	3,07
393	1,69
394	5,13
395	3,88
396	1,81
397	4,21
398	5,04
399	3,14
400	3,9
401	-0,51
402	2,57
403	2,04
404	5,92
405	2,87
406	0,19
407	-2,59
408	-2,08
409	4,41
410	3,94
411	2,21
412	0,12
413	0,81
414	0,07
415	5,73
416	6,11
417	7,17
418	1,53
419	3,72
420	5,08
421	0,53
422	2,41
423	2,99
424	4,39
425	3,57
426	3,1
427	3,32
428	2,31
429	2,52
430	4
431	2,27
432	5,46
433	3,45
434	5,74
435	5,2
436	5,57
437	2,52
438	3,25
439	5,31
440	3,06
441	4,61
442	5,51
443	1,19
444	3,1
445	8,22
446	6,47
447	4,37
448	3,87
449	-0,83
450	2,54
451	5,99
452	3,16
453	5,3
454	6,39
455	3,57
456	5,46
457	6,22
458	0,7
459	1,19
460	1,26
461	2,37
462	0,64
463	4,12
464	2,74
465	4,01
466	3,85
467	4,54
468	4,29
469	0,81
470	1,69
471	3,75
472	2,38
473	0,93
474	4,81
475	1,04
476	6,43
477	-0,46
478	4,7
479	1,65
480	4,52
481	1,29
482	4,51
483	1,71
484	5,65
485	4,22
486	1,61
487	3,59
488	8,17
489	3,39
490	3,14
491	6,87
492	7,65
493	4,35
494	0,36
495	4,58
496	2,57
497	0,98
498	-4,84
499	1,19
500	2,62
501	1,23
502	3,92
503	0,08
504	2,24
505	-0,14
506	4,2
507	5,08
508	0,4
509	1,55
510	4,16
511	4,04
512	1,27
513	1,6
514	2,86
515	3,67
516	5,2
517	2,24
518	-0,99
519	-1,81
520	0,67
521	0,98
522	2,23
523	2,17
524	2,13
525	3,72
526	2,8
527	-0,82
528	4,73
529	1,35
530	1,49
531	-0,99
532	3,09
533	-0,73
534	-0,31
535	3,58
536	1,49
537	3,3
538	1,24
539	4,98
540	2,52
541	1,86
542	1,55
543	1,04
544	2,32
545	1,05
546	-5,52
547	1,48
548	3,97
549	5,24
550	4,42
551	4,06
552	0,47
553	4,46
554	3,77
555	-0,77
556	-0,33
557	1,83
558	3,75
559	2,61
560	3,62
561	3,04
562	3,14
563	2,66
564	2,87
565	-0,4
566	3,85
567	4,08
568	2,2
569	4,65
570	3,68
571	3,97
572	1,85
573	3,91
574	-2,42
575	3,19
576	3,97
577	2,83
578	1,42
579	1,94
580	1,99
581	3,95
582	1,28
583	3,33
584	2,78
585	6,38
586	1,14
587	0,44
588	3,66
589	-0,77
590	3,22
591	7,29
592	5,32
593	-0,24
594	5,66
595	3,2
596	7,49
597	7,04
598	1,28
599	5,67
600	8,86
601	9,08
602	10,7
603	8,28
604	11,33
605	9,8
606	12,26
607	10
608	12,86
609	12,82
610	15,54
611	16,82
612	21,64
613	25,24
614	30,47
615	34,92
616	34,23
617	40,15
618	41,18
619	48,21
620	45,14
621	54,05
622	55,9
623	58,85
624	65,43
625	68,7
626	70,36
627	74,25
628	80,93
629	80,75
630	92,63
631	93,42
632	100,96
633	105,45
634	113,93
635	115,16
636	116,37
637	121,2
638	123,78
639	122,2
640	129,24
641	133,33
642	130,73
643	133,43
644	139,52
645	136,77
646	137,93
647	142,63
648	142,99
649	142,28
650	142,53
651	143,79
652	132,67
653	137,81
654	134,22
655	136,49
656	130,24
657	127,28
658	126,22
659	120,48
660	114,31
661	113,9
662	107,3
663	108,99
664	102,27
665	106,39
666	100,11
667	94,41
668	82,36
669	87,08
670	91,81
671	88,53
672	88,19
673	86,35
674	84,47
675	83,09
676	86,54
677	84,27
678	89,71
679	85,64
680	90,72
681	91,2
682	89,49
683	84,79
684	102,98
685	94,01
686	89,13
687	88,18
688	85,16
689	78,18
690	81,4
691	75,24
692	86,26
693	78,52
694	75,82
695	73,26
696	71,68
697	72,52
698	68,4
699	72,07
700	61,92
701	62,05
702	64,44
703	58,34
704	53,84
705	55,12
706	47,27
707	51,38
708	49,48
709	48,13
710	41,04
711	45,51
712	44,12
713	44,77
714	38,71
715	43,1
716	39,1
717	37,41
718	32,63
719	34,25
720	31,73
721	34,23
722	31,74
723	32,37
724	29,06
725	29,21
726	25,34
727	28,95
728	30,25
729	21,75
730	24,82
731	24,69
732	21,94
733	21,58
734	23,16
735	21,66
736	21,95
737	19,81
738	17,07
739	19,83
740	16,43
741	16
742	18,22
743	18,32
744	16,49
745	13,55
746	11,82
747	16,9
748	13,91
749	11,73
750	14,72
751	12,97
752	9,64
753	15,25
754	7,17
755	10,37
756	15,26
757	6,41
758	7,21
759	8,9
760	6,98
761	6,91
762	9,84
763	9,24
764	6,34
765	5,27
766	8,28
767	9,58
768	7,25
769	7,51
770	5,91
771	7,15
772	7,22
773	6,31
774	3,38
775	8,79
776	5,92
777	3,94
778	2,94
779	7,24
780	2,58
781	6,22
782	3,99
783	2,99
784	0,96
785	6,62
786	5,6
787	5,05
788	5,26
789	2,56
790	4,56
791	1,78
792	6,64
793	1,14
794	5,08
795	0,17
796	4,43
797	0,76
798	5,92
799	2,49
800	2,67
801	2,15
802	0,16
803	4,29
804	1,25
805	5,29
806	4,46
807	4,96
808	3,38
809	5,66
810	2,21
811	5,64
812	1,24
813	3,06
814	2,38
815	1,04
816	0,93
817	3
818	5,09
819	2,25
820	2,77
821	-0,34
822	3,08
823	2,93
824	2,49
825	0,54
826	6,55
827	3,08
828	4,11
829	2
830	5,9
831	-0,87
832	1,2
833	1,2
834	3,24
835	4,38
836	-6,62
837	3,59
838	0,05
839	1,75
840	1,02
841	2,31
842	1,64
843	1,33
844	1,13
845	2,8
846	2,04
847	1,98
848	5,23
849	1,22
850	1,44
851	1,67
852	0,01
853	1,6
854	3,5
855	2,14
856	2,21
857	4,61
858	4,2
859	3,24
860	-0,55
861	4,73
862	0,88
863	5,36
864	0,47
865	3,66
866	4,94
867	4,98
868	2,68
869	0,75
870	-1,85
871	1,42
872	3,23
873	3,11
874	2,18
875	0,87
876	1,92
877	-0,68
878	0,47
879	0,23
880	0,73
881	3,14
882	4,97
883	1,24
884	-0,94
885	-1,87
886	0,22
887	1,36
888	4,41
889	2,23
890	-2,43
891	0,02
892	0,24
893	0,74
894	-2,98
895	3,38
896	1,54
897	2,22
898	2,09
899	1,24
900	-3,07
901	3,12
902	2,57
903	4,68
904	1,7
905	3,08
906	-0,74
907	-1,37
908	2,26
909	4,23
910	1,88
911	0,16
912	3,29
913	2,52
914	2
915	3,13
916	6,12
917	-0,36
918	3,81
919	2,94
920	-0,12
921	0,29
922	1,96
923	-1,11
924	2,31
925	4,32
926	1,33
927	3,88
928	3,6
929	2,99
930	5,28
931	4,93
932	3,46
933	3,1
934	-0,37
935	5,16
936	-0,85
937	1,34
938	5,53
939	1,41
940	0,47
941	1,41
942	1,01
943	0,97
944	2,24
945	-1,06
946	-0,87
947	2,06
948	-3,65
949	-0,39
950	1,39
951	0,86
952	1,23
953	6,96
954	0,09
955	5,13
956	1,74
957	3,42
958	1,17
959	5,37
960	0,96
961	0,09
962	1,33
963	5,45
964	1,63
965	-0,82
966	1,3
967	3,15
968	3,41
969	-0,16
970	1,19
971	-0,1
972	-0,74
973	3,26
974	-0,38
975	2,82
976	-1,45
977	0,15
978	2,66
979	-1,71
980	-0,21
981	4,24
982	3,89
983	5,26
984	1,72
985	5,38
986	-1,72
987	2,36
988	1,2
989	0,35
990	3,73
991	4,85
992	5,84
993	2,17
994	2,65
995	2,53
996	3,52
997	3,49
998	1,18
999	-0,88
1000	0,45
