Data from USB2G573461__60__15-15-33-331.txt Node

Date: Tue Feb 15 15:15:33 EST 2022
User: sammynoelparise
Spectrometer: USB2G57346
Scans to average: 1
Trigger mode: 4
Integration Time (sec): 1,000000E-1
Electric dark correction enabled: true
Boxcar width: 0
XAxis mode: Wavelengths
Number of Pixels in Spectrum: 651
>>>>>Begin Spectral Data<<<<<
350	-0,06
351	-3,35
352	1,73
353	-1,92
354	3,6
355	2,03
356	3,48
357	-2,43
358	2,41
359	1,5
360	3,57
361	1,88
362	2,67
363	-3,45
364	-1,07
365	4,54
366	-1,45
367	2,07
368	2,34
369	4,54
370	1,88
371	2,04
372	6,57
373	-0,63
374	5,98
375	5,59
376	0,59
377	3,57
378	3,45
379	2,42
380	2,97
381	-1,17
382	2,18
383	2,87
384	0,25
385	3,76
386	0,24
387	2,86
388	0,99
389	2,83
390	6,6
391	2,77
392	4,96
393	1,38
394	3,38
395	4,54
396	6,48
397	2,56
398	6
399	1,81
400	2,6
401	5,16
402	4,05
403	0,4
404	3,24
405	3,71
406	6,54
407	4,38
408	5,49
409	5,65
410	3,46
411	1,47
412	4,87
413	4,94
414	4,02
415	4,22
416	3,12
417	1,72
418	6,24
419	6,33
420	5,46
421	7,52
422	8,96
423	6,4
424	6,67
425	8,11
426	9
427	9,34
428	9,4
429	11,1
430	12,04
431	10,7
432	19,99
433	15,66
434	13,96
435	17,43
436	19,74
437	18,89
438	24,57
439	27,26
440	29,9
441	29,72
442	33,98
443	38,67
444	42,02
445	39,45
446	45
447	46,3
448	46,58
449	52,52
450	55,08
451	55,86
452	53,47
453	47,56
454	53,59
455	44,86
456	45,22
457	42,24
458	38,44
459	35,21
460	35,09
461	33,84
462	32,13
463	32,95
464	30,35
465	29,17
466	31,52
467	28,15
468	23,41
469	27,64
470	24,83
471	20,41
472	17,86
473	19,42
474	18,6
475	21,21
476	22,9
477	20,43
478	21,92
479	17,39
480	21,95
481	17,76
482	24,9
483	25,6
484	26,59
485	27,54
486	25,53
487	25,88
488	27,95
489	24,94
490	28,66
491	27,47
492	27,57
493	34,97
494	35,48
495	38,19
496	36,79
497	35,58
498	40,55
499	39,36
500	45,13
501	42,32
502	43,06
503	43,65
504	47,57
505	48,18
506	46,29
507	52,98
508	52,66
509	57,65
510	52,92
511	57,5
512	56,78
513	61,93
514	50,13
515	55,01
516	58,52
517	57,59
518	60,18
519	59,65
520	58,9
521	57,91
522	59,56
523	60,2
524	62,68
525	64,69
526	65,48
527	63,4
528	63,24
529	58,85
530	66,51
531	69,85
532	63,94
533	65,33
534	68,25
535	59,43
536	63,44
537	67,92
538	67,65
539	61,34
540	61,55
541	68,72
542	65,81
543	64,52
544	63,33
545	67,68
546	70,18
547	67,12
548	67,36
549	64,59
550	71,23
551	67,61
552	75,65
553	70,13
554	67,92
555	69,56
556	66,48
557	69,66
558	73
559	73,95
560	65,23
561	66,48
562	67,14
563	71,62
564	68,12
565	69,17
566	68,01
567	72,89
568	64,8
569	65,73
570	66,63
571	67,3
572	69,65
573	68,12
574	68,22
575	69,69
576	68,28
577	66,04
578	68,08
579	71,14
580	65,77
581	68,05
582	65,63
583	68,26
584	64,45
585	69,02
586	65,02
587	69,79
588	63,74
589	63,48
590	66,18
591	63,65
592	61,56
593	63,37
594	66,58
595	63,1
596	60,23
597	63,62
598	59,13
599	64,53
600	60,72
601	63,67
602	60,1
603	58,68
604	58,23
605	57,75
606	60,52
607	56,43
608	54,34
609	53,27
610	55,46
611	52,4
612	52,24
613	56,58
614	50,61
615	52,52
616	47,56
617	48,74
618	49,26
619	46,23
620	49,46
621	44,4
622	49,41
623	45,71
624	47,1
625	44,84
626	46,2
627	45,57
628	40,37
629	40,39
630	38,54
631	35,46
632	37,3
633	37,98
634	33,33
635	32,45
636	34,76
637	34,42
638	35,44
639	28,6
640	35,55
641	34,6
642	30,85
643	24,61
644	28,01
645	26,36
646	26,24
647	27,32
648	24,43
649	24,89
650	27,59
651	26,04
652	25
653	18,45
654	24,01
655	19,41
656	18,36
657	18,79
658	25,6
659	18,57
660	17,8
661	16,04
662	20,21
663	19,68
664	19,21
665	18,6
666	16,24
667	12,16
668	13,4
669	14,04
670	11,89
671	11,47
672	12,51
673	12,03
674	13,68
675	14,54
676	11
677	10,83
678	12,12
679	14,89
680	10,85
681	8,2
682	13,54
683	11,02
684	8,06
685	10,57
686	7,51
687	10,19
688	6,31
689	4,29
690	6,25
691	7,8
692	7,77
693	5,47
694	8,22
695	10,15
696	7,43
697	3,42
698	3,89
699	9,53
700	8,66
701	7,09
702	5,68
703	4,81
704	4,46
705	5,82
706	5,48
707	5,45
708	4,78
709	4,32
710	4,29
711	3,01
712	4,8
713	4,22
714	6,89
715	1,65
716	2,68
717	2,96
718	5,97
719	4,09
720	4,96
721	3,92
722	1,34
723	2,52
724	1,35
725	3,61
726	2,6
727	5,56
728	2,37
729	-1,83
730	1,87
731	4,65
732	6,33
733	2,92
734	3,08
735	4,45
736	2,05
737	2,86
738	3,32
739	-0,48
740	2,01
741	-0,61
742	3,57
743	3,54
744	1,68
745	2,93
746	2,73
747	1,57
748	2,32
749	1,48
750	0,01
751	1,01
752	5,44
753	1,84
754	6,53
755	2,52
756	2,91
757	-0,11
758	3,13
759	5,85
760	4,35
761	3,06
762	0,88
763	-0,27
764	4,58
765	0,58
766	4,32
767	0,69
768	-0,34
769	1,65
770	1,99
771	1,95
772	2,99
773	7,52
774	-0,45
775	3,01
776	6,75
777	5,54
778	-4,29
779	4,95
780	1,59
781	1,55
782	-1,48
783	-3,34
784	0,42
785	1,24
786	-0,85
787	2,11
788	3,57
789	2,84
790	-2,46
791	0,51
792	-3,67
793	0,28
794	1,95
795	0,52
796	2,59
797	2,38
798	2,1
799	1,52
800	1,94
801	-0,45
802	4,29
803	2,74
804	-1,7
805	0,02
806	5,86
807	1,65
808	1,79
809	2,76
810	2,37
811	2,79
812	-0,36
813	-2,25
814	2,27
815	-1,97
816	1,78
817	4,69
818	0,5
819	2,8
820	-0,71
821	-0,34
822	0,59
823	1,82
824	1,63
825	-1,03
826	2,44
827	-0,58
828	0,07
829	1,61
830	-1,47
831	-0,67
832	3,68
833	2,51
834	3,81
835	4,78
836	2,58
837	1,29
838	1,74
839	2,38
840	1,48
841	2,66
842	-0,09
843	1,47
844	-0,46
845	5,93
846	3,22
847	2,18
848	0,54
849	0,13
850	1,83
851	6,37
852	1,88
853	3,89
854	1,65
855	-3,26
856	1,55
857	-2,09
858	0,01
859	0,5
860	-0,26
861	1,07
862	-0,54
863	-0,46
864	-0,08
865	3,23
866	-0,88
867	-2,67
868	-0,51
869	4,37
870	0,54
871	3,02
872	1,18
873	0,03
874	0,86
875	0,89
876	1,45
877	1,68
878	-0,29
879	4,39
880	0,63
881	-2,67
882	0,48
883	-1,44
884	-3,87
885	5,79
886	4,57
887	-0,96
888	-3,66
889	2,57
890	4,42
891	3,62
892	3,59
893	-0,27
894	2,09
895	-0,3
896	-0,33
897	2,32
898	1,46
899	0,57
900	-1,3
901	0,15
902	2,2
903	-0,69
904	3,5
905	3,58
906	0,72
907	2,13
908	-0,16
909	2,57
910	1,04
911	-0,52
912	3,23
913	4,52
914	1,55
915	0,28
916	2,44
917	0,11
918	0,21
919	-1,13
920	-0,37
921	-1,3
922	-0,87
923	0,42
924	2,71
925	-1,21
926	3,55
927	-0,4
928	2,28
929	-2,28
930	-0,14
931	3,46
932	-0,28
933	3,57
934	-0,18
935	1,54
936	3,75
937	2,61
938	0,55
939	1,78
940	-2,47
941	1,19
942	-1,02
943	4,67
944	1,54
945	3,96
946	5,66
947	0,41
948	0,74
949	0,52
950	3,8
951	-0,87
952	-1,37
953	-0,42
954	-2,62
955	5,8
956	0,88
957	-1,26
958	0,77
959	4,32
960	1,41
961	2,46
962	1,92
963	1,96
964	0,26
965	0,26
966	-0,19
967	2
968	1,82
969	0,83
970	0,54
971	3,2
972	0,33
973	2,12
974	-0,48
975	2,15
976	-0,48
977	-0,67
978	-0,93
979	2,4
980	1,92
981	5,57
982	2,39
983	4,56
984	1,09
985	2,59
986	1,6
987	-2,21
988	0,6
989	3,16
990	2,21
991	1,53
992	-0,51
993	2,77
994	0,67
995	-0,74
996	3,57
997	-0,46
998	2,53
999	2,56
1000	-1,54
