Data from USB2G573461__4__13-05-48-996.txt Node

Date: Tue Mar 01 13:05:48 EST 2022
User: sammynoelparise
Spectrometer: USB2G57346
Scans to average: 1
Trigger mode: 4
Integration Time (sec): 1,000000E-1
Electric dark correction enabled: true
Boxcar width: 0
XAxis mode: Wavelengths
Number of Pixels in Spectrum: 651
>>>>>Begin Spectral Data<<<<<
350	3,96
351	-2,37
352	0,02
353	0,04
354	-1,65
355	2,68
356	-0,62
357	3,48
358	-3,27
359	3,28
360	1,53
361	2,73
362	-0,79
363	1,47
364	-2,05
365	3,64
366	3,54
367	0,25
368	0,25
369	1,5
370	0,47
371	-0,87
372	0,52
373	0,54
374	1,97
375	2,48
376	0,59
377	2,35
378	3,67
379	0,44
380	3,07
381	1,7
382	3,46
383	2,42
384	0,6
385	5,97
386	3,32
387	1,81
388	2,66
389	2,85
390	2,42
391	-0,24
392	3,64
393	5,91
394	1,37
395	1,81
396	-1,33
397	5,49
398	3,42
399	0,38
400	4,59
401	4,67
402	2,98
403	2,44
404	4,04
405	6,92
406	3,6
407	5,49
408	3,14
409	2,93
410	2,42
411	4,3
412	4,55
413	5,42
414	1,82
415	3,24
416	1,39
417	1,52
418	1,45
419	1,91
420	6,37
421	2,36
422	1,1
423	3,48
424	7,43
425	5,34
426	6,16
427	6,76
428	6,51
429	4,4
430	5,82
431	7,61
432	5,08
433	7,4
434	5,75
435	10,95
436	9,9
437	5,76
438	9,53
439	13,41
440	15,75
441	13,48
442	15,44
443	16,13
444	15,76
445	15,42
446	15,48
447	20,78
448	19,34
449	16,54
450	19,9
451	21,51
452	18,31
453	15,51
454	15,41
455	14,46
456	17,47
457	17,36
458	12,19
459	18,49
460	16,02
461	13,19
462	12,11
463	12,02
464	13,53
465	13,73
466	8,97
467	6,66
468	11,62
469	3,23
470	7,5
471	8,03
472	7,24
473	6,8
474	8,11
475	7,76
476	8,38
477	7,83
478	7,11
479	7,6
480	3,76
481	4,61
482	7,35
483	7,72
484	4,95
485	8,53
486	9,96
487	5,85
488	7,68
489	11,16
490	8,72
491	6,03
492	6,73
493	9,79
494	11,5
495	11,37
496	7,6
497	12,94
498	8,53
499	12,31
500	8,98
501	7,29
502	13,07
503	14,36
504	16,24
505	13,91
506	11,8
507	10,4
508	10,46
509	16,66
510	17,78
511	11,6
512	14,41
513	10,06
514	17
515	14,08
516	15,67
517	15,54
518	12,83
519	15,54
520	18,82
521	15,63
522	14,51
523	13,92
524	14,5
525	14,96
526	17,37
527	15,52
528	18,99
529	16,28
530	18,06
531	17,12
532	21,64
533	16,92
534	19,72
535	16,96
536	18,98
537	17,75
538	15,44
539	20,38
540	17,06
541	19,85
542	17,56
543	17,73
544	17,06
545	18,17
546	18,04
547	20,63
548	19,36
549	18,55
550	17,23
551	17,25
552	21,21
553	20,22
554	19,9
555	19,44
556	22,11
557	19,8
558	18,18
559	20,58
560	20,36
561	23,53
562	23,46
563	20,66
564	26,58
565	21,71
566	22,96
567	27,06
568	25,58
569	26,25
570	35,5
571	32,36
572	33,76
573	34,59
574	33,42
575	33,58
576	36,16
577	35,38
578	38,87
579	42,75
580	44,27
581	38,09
582	46,35
583	46,53
584	50,52
585	51,74
586	58,19
587	56,17
588	59,99
589	66,47
590	61,67
591	72,58
592	71,55
593	75,95
594	79,6
595	84,04
596	85,83
597	92,71
598	92,15
599	91,74
600	96,26
601	101,63
602	105,55
603	114,88
604	108,38
605	113,16
606	122,61
607	126,68
608	127,17
609	125,56
610	130,12
611	135,11
612	139,35
613	140,09
614	145,97
615	141,52
616	139,52
617	146,34
618	149,32
619	152,15
620	151,65
621	155,66
622	149,58
623	151,78
624	159,62
625	166,29
626	153,6
627	150,5
628	154,52
629	148,51
630	156,33
631	149,57
632	151
633	146,49
634	149,39
635	152,67
636	150,32
637	144,04
638	141,54
639	146,07
640	138,46
641	139,62
642	130,33
643	136,09
644	132,34
645	124,13
646	130,27
647	129,56
648	117,93
649	114,26
650	117
651	114,14
652	112,53
653	106,04
654	105,5
655	103,67
656	99,99
657	98,5
658	96,47
659	93,66
660	85,43
661	90,54
662	82,47
663	78,64
664	78,13
665	77,06
666	75,07
667	72,06
668	65,76
669	68,46
670	68,06
671	61,64
672	57,84
673	60,83
674	55,58
675	58,38
676	58,73
677	51,8
678	59,15
679	50,34
680	52,86
681	47,49
682	46,2
683	50,14
684	46,79
685	49,22
686	41,03
687	44,49
688	39,43
689	37,84
690	36,56
691	34,81
692	33,26
693	37,46
694	34,17
695	33,1
696	32,31
697	29,11
698	28,56
699	26,11
700	25,33
701	25,53
702	23,23
703	27,12
704	26
705	19,81
706	26,34
707	22,68
708	13,51
709	22,66
710	18,56
711	22,28
712	18,08
713	16,58
714	14,89
715	17,78
716	16,2
717	18,03
718	14,9
719	10,86
720	13,22
721	14,75
722	13,15
723	16,26
724	14,37
725	12,53
726	13,44
727	10,62
728	12,18
729	14,15
730	7,34
731	4,88
732	8,31
733	8,66
734	7,49
735	3,21
736	7,04
737	9,13
738	5,94
739	7,2
740	3,12
741	5,41
742	5,49
743	2,75
744	1,39
745	8,48
746	4,06
747	1,55
748	5,31
749	6,23
750	1,77
751	2,16
752	4,91
753	2,94
754	2,53
755	1,41
756	5,14
757	3,07
758	7,62
759	2,18
760	2,04
761	6,24
762	3,87
763	2,18
764	2,42
765	4,4
766	2,07
767	6,12
768	3,4
769	0,66
770	2,74
771	4,09
772	0,14
773	4,49
774	0,51
775	4,78
776	5,86
777	4,16
778	1,05
779	1,26
780	2,37
781	3,54
782	3,65
783	2,96
784	2,54
785	3,73
786	1,69
787	2,15
788	4,54
789	0,78
790	0,22
791	-1,18
792	-2,02
793	1,02
794	0,33
795	-0,42
796	-1,43
797	-2,37
798	0,01
799	-3,34
800	3,22
801	4,51
802	3,03
803	0,61
804	2,3
805	2,33
806	1,34
807	0,6
808	-1,33
809	-0,96
810	-1,81
811	0,65
812	1,42
813	2,26
814	6,31
815	1,39
816	3,79
817	1,24
818	1,27
819	-0,26
820	-1,03
821	1,57
822	-0,37
823	4,52
824	0,64
825	4,3
826	1,41
827	0,58
828	-0,99
829	2,31
830	-0,65
831	-0,55
832	0,7
833	0,21
834	0,25
835	0,47
836	-0,5
837	-0,59
838	0,52
839	-1,07
840	2,48
841	-1,2
842	0,61
843	1
844	2,87
845	-1,82
846	0,07
847	2,24
848	0,48
849	2,77
850	0,72
851	1,71
852	3,83
853	-0,45
854	-0,05
855	-0,11
856	2,53
857	-2,63
858	-0,23
859	-2
860	-1,22
861	-2,19
862	4,82
863	0,73
864	-1,54
865	-3,29
866	1,19
867	0,31
868	6,58
869	-1,43
870	0,45
871	-1,48
872	0,39
873	0,08
874	0,85
875	-1,92
876	-0,54
877	1,28
878	0,85
879	-2,09
880	-4,44
881	0,37
882	2,58
883	3,5
884	-1,12
885	1,99
886	-2,49
887	-0,29
888	1,54
889	-1,49
890	-0,36
891	-0,55
892	1,56
893	4,69
894	4,78
895	-1,54
896	1,77
897	0,08
898	-1,37
899	-0,43
900	-0,38
901	-0,18
902	1,04
903	-3,53
904	1,44
905	1,48
906	4,29
907	1,06
908	0,4
909	0,04
910	1,28
911	0,6
912	1,47
913	-0,82
914	-2,13
915	3,94
916	-1,64
917	-1,48
918	-0,31
919	-0,37
920	3,45
921	-3,29
922	-4,8
923	-0,64
924	2,67
925	-1,7
926	-2,46
927	3,43
928	2,51
929	1,85
930	0,39
931	-0,94
932	-1,43
933	1,22
934	-1,83
935	-0,36
936	0,64
937	4,49
938	0,19
939	1,73
940	-0,81
941	-1,88
942	2,75
943	-0,19
944	-1,49
945	2,73
946	1,59
947	0,94
948	1,73
949	-0,24
950	1,96
951	0,99
952	0,48
953	0,32
954	2,22
955	-0,04
956	-0,2
957	1,62
958	0,24
959	-0,99
960	0,93
961	2,75
962	0,96
963	0,69
964	2,37
965	3,8
966	-1,55
967	-1,12
968	-0,75
969	-0,8
970	2,53
971	2,1
972	5,4
973	2,39
974	1,93
975	1,98
976	2,63
977	0,97
978	-1,27
979	0,83
980	3,97
981	1,5
982	0,98
983	1,83
984	0,54
985	-0,53
986	-0,05
987	-1,26
988	1,51
989	0,85
990	1,79
991	1,73
992	3,68
993	-0,6
994	1,85
995	2,65
996	1,6
997	-0,32
998	-0,46
999	4,36
1000	2,4
